    0.029     1.000    -1.000     0.029     55.43     25.56
    0.029     1.000    -1.000     0.029    -75.84     55.10
    0.029     1.000    -1.000     0.029    -93.80     77.79
    0.029     1.000    -1.000     0.029   -113.24    -23.95
    0.029     1.000    -1.000     0.029   -265.27     94.82
